      T          Cv          Cp        S         G(T)      H(T)-H(0)    H(T)
    100.00     85.533     93.848    346.791 -1815745.539   6744.732 -1815710.860 
    105.00     88.084     96.399    351.431 -1815747.285   7220.331 -1815710.384 
    110.00     90.678     98.992    355.975 -1815749.053   7708.790 -1815709.896 
    115.00     93.316    101.630    360.434 -1815750.844   8210.327 -1815709.394 
    120.00     96.001    104.315    364.816 -1815752.657   8725.170 -1815708.880 
    125.00     98.734    107.048    369.129 -1815754.492   9253.559 -1815708.351 
    130.00    101.517    109.831    373.382 -1815756.349   9795.737 -1815707.809 
    135.00    104.350    112.664    377.580 -1815758.226  10351.954 -1815707.253 
    140.00    107.233    115.548    381.729 -1815760.124  10922.462 -1815706.682 
    145.00    110.168    118.482    385.835 -1815762.043  11507.517 -1815706.097 
    150.00    113.154    121.468    389.902 -1815763.983  12107.372 -1815705.497 
    155.00    116.191    124.505    393.934 -1815765.942  12722.285 -1815704.882 
    160.00    119.279    127.593    397.936 -1815767.922  13352.511 -1815704.252 
    165.00    122.417    130.732    401.910 -1815769.922  13998.303 -1815703.606 
    170.00    125.606    133.920    405.860 -1815771.941  14659.913 -1815702.945 
    175.00    128.844    137.158    409.788 -1815773.980  15337.588 -1815702.267 
    180.00    132.130    140.444    413.698 -1815776.039  16031.574 -1815701.573 
    185.00    135.463    143.778    417.592 -1815778.117  16742.109 -1815700.863 
    190.00    138.843    147.157    421.471 -1815780.215  17469.428 -1815700.135 
    195.00    142.267    150.582    425.337 -1815782.332  18213.757 -1815699.391 
    200.00    145.735    154.049    429.193 -1815784.468  18975.316 -1815698.629 
    205.00    149.244    157.558    433.040 -1815786.624  19754.317 -1815697.850 
    210.00    152.793    161.107    436.879 -1815788.798  20550.965 -1815697.054 
    215.00    156.379    164.694    440.712 -1815790.992  21365.452 -1815696.239 
    220.00    160.002    168.317    444.540 -1815793.206  22197.964 -1815695.407 
    225.00    163.658    171.973    448.363 -1815795.438  23048.674 -1815694.556 
    230.00    167.346    175.661    452.184 -1815797.689  23917.746 -1815693.687 
    235.00    171.064    179.378    456.001 -1815799.960  24805.331 -1815692.799 
    240.00    174.808    183.122    459.817 -1815802.249  25711.571 -1815691.893 
    245.00    178.577    186.891    463.631 -1815804.558  26636.594 -1815690.968 
    250.00    182.368    190.682    467.445 -1815806.886  27580.518 -1815690.024 
    255.00    186.178    194.493    471.259 -1815809.232  28543.447 -1815689.061 
    260.00    190.007    198.321    475.073 -1815811.598  29525.475 -1815688.079 
    265.00    193.850    202.164    478.887 -1815813.983  30526.682 -1815687.078 
    270.00    197.706    206.020    482.701 -1815816.387  31547.138 -1815686.058 
    275.00    201.572    209.886    486.517 -1815818.810  32586.899 -1815685.018 
    280.00    205.446    213.760    490.334 -1815821.252  33646.012 -1815683.959 
    285.00    209.325    217.640    494.151 -1815823.713  34724.509 -1815682.880 
    290.00    213.208    221.523    497.970 -1815826.194  35822.414 -1815681.782 
    295.00    217.092    225.407    501.790 -1815828.693  36939.736 -1815680.665 
    300.00    220.975    229.290    505.611 -1815831.212  38076.478 -1815679.528 
    305.00    224.855    233.170    509.433 -1815833.749  39232.628 -1815678.372 
    310.00    228.730    237.045    513.256 -1815836.306  40408.167 -1815677.197 
    315.00    232.598    240.913    517.080 -1815838.882  41603.064 -1815676.002 
    320.00    236.458    244.772    520.904 -1815841.477  42817.280 -1815674.787 
    325.00    240.306    248.621    524.729 -1815844.091  44050.766 -1815673.554 
    330.00    244.142    252.457    528.554 -1815846.724  45303.465 -1815672.301 
    335.00    247.965    256.279    532.379 -1815849.376  46575.311 -1815671.029 
    340.00    251.772    260.086    536.204 -1815852.048  47866.231 -1815669.739 
    345.00    255.562    263.876    540.028 -1815854.738  49176.144 -1815668.429 
    350.00    259.333    267.648    543.852 -1815857.448  50504.961 -1815667.100 
    355.00    263.085    271.400    547.675 -1815860.177  51852.588 -1815665.752 
    360.00    266.816    275.131    551.497 -1815862.925  53218.923 -1815664.386 
    365.00    270.526    278.840    555.318 -1815865.692  54603.860 -1815663.001 
    370.00    274.212    282.526    559.137 -1815868.478  56007.286 -1815661.597 
    375.00    277.874    286.188    562.953 -1815871.283  57429.084 -1815660.176 
    380.00    281.511    289.826    566.768 -1815874.108  58869.130 -1815658.736 
    385.00    285.123    293.437    570.580 -1815876.951  60327.297 -1815657.277 
    390.00    288.708    297.022    574.390 -1815879.813  61803.456 -1815655.801 
    395.00    292.265    300.580    578.196 -1815882.695  63297.472 -1815654.307 
    400.00    295.795    304.109    581.999 -1815885.595  64809.206 -1815652.796 
    405.00    299.296    307.610    585.799 -1815888.515  66338.517 -1815651.266 
    410.00    302.768    311.083    589.595 -1815891.453  67885.261 -1815649.719 
    415.00    306.211    314.525    593.386 -1815894.411  69449.293 -1815648.155 
    420.00    309.623    317.938    597.173 -1815897.387  71030.463 -1815646.574 
    425.00    313.006    321.320    600.956 -1815900.382  72628.622 -1815644.976 
    430.00    316.358    324.672    604.734 -1815903.397  74243.617 -1815643.361 
    435.00    319.679    327.994    608.506 -1815906.430  75875.294 -1815641.729 
    440.00    322.969    331.284    612.274 -1815909.482  77523.500 -1815640.081 
    445.00    326.228    334.543    616.036 -1815912.552  79188.078 -1815638.417 
    450.00    329.456    337.770    619.792 -1815915.642  80868.873 -1815636.736 
    455.00    332.652    340.966    623.542 -1815918.750  82565.727 -1815635.039 
    460.00    335.816    344.131    627.285 -1815921.877  84278.483 -1815633.326 
    465.00    338.950    347.264    631.023 -1815925.023  86006.984 -1815631.598 
    470.00    342.051    350.366    634.753 -1815928.188  87751.072 -1815629.854 
    475.00    345.122    353.436    638.477 -1815931.371  89510.590 -1815628.094 
    480.00    348.161    356.475    642.194 -1815934.572  91285.381 -1815626.319 
    485.00    351.168    359.483    645.904 -1815937.793  93075.288 -1815624.529 
    490.00    354.145    362.459    649.606 -1815941.031  94880.156 -1815622.725 
    495.00    357.090    365.405    653.301 -1815944.289  96699.829 -1815620.905 
    500.00    360.005    368.319    656.988 -1815947.564  98534.151 -1815619.071 
    505.00    362.889    371.203    660.667 -1815950.859 100382.971 -1815617.222 
    510.00    365.742    374.057    664.338 -1815954.171 102246.134 -1815615.359 
    515.00    368.566    376.880    668.001 -1815957.502 104123.489 -1815613.481 
    520.00    371.359    379.673    671.656 -1815960.851 106014.885 -1815611.590 
    525.00    374.122    382.437    675.303 -1815964.219 107920.174 -1815609.685 
    530.00    376.856    385.171    678.941 -1815967.604 109839.205 -1815607.766 
    535.00    379.561    387.876    682.570 -1815971.008 111771.834 -1815605.833 
    540.00    382.237    390.551    686.191 -1815974.430 113717.913 -1815603.887 
    545.00    384.884    393.198    689.803 -1815977.870 115677.300 -1815601.927 
    550.00    387.503    395.817    693.405 -1815981.328 117649.850 -1815599.955 
    555.00    390.093    398.408    696.999 -1815984.804 119635.424 -1815597.969 
    560.00    392.656    400.970    700.584 -1815988.298 121633.881 -1815595.971 
    565.00    395.191    403.506    704.159 -1815991.810 123645.083 -1815593.960 
    570.00    397.699    406.014    707.726 -1815995.339 125668.894 -1815591.936 
    575.00    400.181    408.495    711.282 -1815998.887 127705.177 -1815589.900 
    580.00    402.635    410.950    714.830 -1816002.452 129753.801 -1815587.851 
    585.00    405.064    413.378    718.368 -1816006.035 131814.633 -1815585.790 
    590.00    407.467    415.781    721.896 -1816009.636 133887.543 -1815583.717 
    595.00    409.844    418.158    725.415 -1816013.254 135972.402 -1815581.632 
    600.00    412.196    420.510    728.924 -1816016.890 138069.083 -1815579.536 
    605.00    414.523    422.837    732.423 -1816020.543 140177.461 -1815577.427 
    610.00    416.825    425.139    735.913 -1816024.214 142297.413 -1815575.307 
    615.00    419.103    427.417    739.393 -1816027.902 144428.815 -1815573.176 
    620.00    421.357    429.672    742.863 -1816031.608 146571.547 -1815571.033 
    625.00    423.588    431.902    746.323 -1816035.331 148725.491 -1815568.879 
    630.00    425.795    434.109    749.773 -1816039.071 150890.530 -1815566.714 
    635.00    427.979    436.294    753.214 -1816042.829 153066.546 -1815564.538 
    640.00    430.141    438.455    756.644 -1816046.603 155253.428 -1815562.351 
    645.00    432.280    440.594    760.064 -1816050.395 157451.060 -1815560.154 
    650.00    434.397    442.711    763.475 -1816054.204 159659.333 -1815557.945 
    655.00    436.492    444.807    766.875 -1816058.030 161878.138 -1815555.727 
    660.00    438.566    446.881    770.266 -1816061.873 164107.365 -1815553.497 
    665.00    440.619    448.933    773.646 -1816065.733 166346.909 -1815551.258 
    670.00    442.651    450.965    777.017 -1816069.609 168596.664 -1815549.008 
    675.00    444.662    452.977    780.377 -1816073.503 170856.527 -1815546.748 
    680.00    446.653    454.968    783.727 -1816077.413 173126.396 -1815544.478 
    685.00    448.624    456.939    787.068 -1816081.340 175406.170 -1815542.199 
    690.00    450.575    458.890    790.398 -1816085.284 177695.749 -1815539.909 
    695.00    452.507    460.822    793.718 -1816089.244 179995.036 -1815537.610 
    700.00    454.420    462.734    797.029 -1816093.221 182303.934 -1815535.301 
    705.00    456.314    464.628    800.329 -1816097.214 184622.348 -1815532.982 
    710.00    458.189    466.503    803.619 -1816101.224 186950.184 -1815530.655 
    715.00    460.045    468.360    806.899 -1816105.250 189287.350 -1815528.317 
    720.00    461.884    470.198    810.170 -1816109.293 191633.753 -1815525.971 
    725.00    463.705    472.019    813.430 -1816113.352 193989.304 -1815523.615 
    730.00    465.508    473.822    816.680 -1816117.427 196353.915 -1815521.251 
    735.00    467.293    475.608    819.921 -1816121.519 198727.496 -1815518.877 
    740.00    469.062    477.376    823.151 -1816125.627 201109.963 -1815516.495 
    745.00    470.813    479.128    826.372 -1816129.750 203501.230 -1815514.104 
    750.00    472.548    480.863    829.582 -1816133.890 205901.212 -1815511.704 
    755.00    474.266    482.581    832.783 -1816138.046 208309.828 -1815509.295 
    760.00    475.968    484.283    835.974 -1816142.218 210726.994 -1815506.878 
    765.00    477.655    485.969    839.155 -1816146.406 213152.630 -1815504.452 
    770.00    479.325    487.639    842.327 -1816150.610 215586.657 -1815502.018 
    775.00    480.979    489.294    845.488 -1816154.829 218028.996 -1815499.576 
    780.00    482.619    490.933    848.640 -1816159.064 220479.570 -1815497.125 
    785.00    484.243    492.557    851.782 -1816163.316 222938.301 -1815494.666 
    790.00    485.852    494.166    854.915 -1816167.582 225405.114 -1815492.200 
    795.00    487.446    495.760    858.038 -1816171.865 227879.936 -1815489.725 
    800.00    489.025    497.340    861.151 -1816176.163 230362.692 -1815487.242 
    805.00    490.590    498.905    864.254 -1816180.476 232853.309 -1815484.751 
    810.00    492.141    500.456    867.348 -1816184.805 235351.716 -1815482.253 
    815.00    493.678    501.993    870.433 -1816189.150 237857.842 -1815479.747 
    820.00    495.201    503.515    873.508 -1816193.509 240371.618 -1815477.233 
    825.00    496.710    505.025    876.573 -1816197.885 242892.974 -1815474.712 
    830.00    498.206    506.520    879.629 -1816202.275 245421.842 -1815472.183 
    835.00    499.688    508.003    882.676 -1816206.681 247958.154 -1815469.647 
    840.00    501.157    509.472    885.713 -1816211.102 250501.846 -1815467.103 
    845.00    502.613    510.928    888.741 -1816215.538 253052.850 -1815464.552 
    850.00    504.056    512.371    891.760 -1816219.989 255611.102 -1815461.994 
    855.00    505.487    513.801    894.769 -1816224.456 258176.537 -1815459.428 
    860.00    506.905    515.219    897.769 -1816228.937 260749.094 -1815456.856 
    865.00    508.310    516.625    900.760 -1816233.433 263328.709 -1815454.276 
    870.00    509.703    518.018    903.742 -1816237.945 265915.320 -1815451.689 
    875.00    511.084    519.399    906.714 -1816242.471 268508.867 -1815449.096 
    880.00    512.453    520.768    909.678 -1816247.012 271109.288 -1815446.495 
    885.00    513.811    522.125    912.632 -1816251.567 273716.526 -1815443.888 
    890.00    515.156    523.471    915.577 -1816256.138 276330.520 -1815441.274 
    895.00    516.490    524.805    918.514 -1816260.723 278951.213 -1815438.654 
    900.00    517.813    526.127    921.441 -1816265.323 281578.547 -1815436.026 
    905.00    519.124    527.438    924.360 -1816269.938 284212.465 -1815433.392 
    910.00    520.424    528.738    927.269 -1816274.567 286852.911 -1815430.752 
    915.00    521.713    530.027    930.170 -1816279.210 289499.829 -1815428.105 
    920.00    522.991    531.305    933.062 -1816283.868 292153.165 -1815425.452 
    925.00    524.258    532.573    935.945 -1816288.541 294812.864 -1815422.792 
    930.00    525.515    533.829    938.819 -1816293.228 297478.873 -1815420.126 
    935.00    526.761    535.075    941.685 -1816297.929 300151.138 -1815417.454 
    940.00    527.996    536.311    944.542 -1816302.645 302829.607 -1815414.775 
    945.00    529.221    537.536    947.390 -1816307.375 305514.228 -1815412.091 
    950.00    530.437    538.751    950.230 -1816312.119 308204.950 -1815409.400 
    955.00    531.641    539.956    953.062 -1816316.877 310901.721 -1815406.703 
    960.00    532.836    541.151    955.884 -1816321.649 313604.492 -1815404.000 
    965.00    534.021    542.336    958.699 -1816326.436 316313.213 -1815401.292 
    970.00    535.197    543.511    961.504 -1816331.236 319027.834 -1815398.577 
    975.00    536.362    544.677    964.302 -1816336.051 321748.307 -1815395.856 
    980.00    537.518    545.833    967.091 -1816340.879 324474.585 -1815393.130 
    985.00    538.665    546.979    969.872 -1816345.722 327206.618 -1815390.398 
    990.00    539.802    548.116    972.644 -1816350.578 329944.361 -1815387.660 
    995.00    540.930    549.244    975.408 -1816355.448 332687.766 -1815384.917 
   1000.00    542.048    550.363    978.164 -1816360.332 335436.788 -1815382.168 
